BGreg_val Voltage stddev
0 1.41485 0.00145346
1 1.39967 0.000546412
2 1.38324 0.00117429
3 1.36453 8.88178e-16
4 1.34531 2.66454e-15
5 1.32609 6.66134e-16
6 1.30688 1.9984e-15
7 1.28125 0
8 1.25524 0.00104089
9 1.22849 0.00159868
10 1.2021 0.00209039
11 1.17603 0.00315064
12 1.14723 0.00299522
13 1.12369 0.00344079
14 1.09576 0.00217695
15 1.06815 0.00166162
16 1.03996 0.00181507
