BGreg_val Voltage stddev
0 1.01859 1.77636e-15
1 1.00549 0.000916676
2 0.989766 5.55112e-16
3 0.97375 8.88178e-16
4 0.956101 0.00160124
5 0.935697 0.00104089
6 0.918464 0.001405
7 0.898092 0.00155475
8 0.879802 0.00150615
9 0.859591 0.0015375
10 0.841173 0.00156232
11 0.820641 0.00163328
12 0.802255 0.00189066
13 0.782716 0.0015375
14 0.764266 0.0015692
15 0.743061 0.000448437
16 0.723906 6.66134e-16
