BGreg_val Voltage stddev
0 1.01219 6.66134e-16
1 0.999375 5.55112e-16
2 0.986402 0.000698105
3 0.971252 0.00132688
4 0.956581 0.0015375
5 0.938516 1.33227e-15
6 0.919361 0.000448438
7 0.900366 0.000916676
8 0.882237 0.00158579
9 0.863563 0.0015692
10 0.844376 0.00468347
11 0.826662 0.00617265
12 0.805362 0.00697745
13 0.787328 0.00275543
14 0.768302 0.0025633
15 0.748602 0.00218635
16 0.728743 0.00160124
