BGreg_val Voltage stddev
0 1.42055 0.00237529
1 1.40752 0.00158093
2 1.38958 0.0012306
3 1.37094 2.44249e-15
4 1.35172 2.66454e-15
5 1.33234 0.000698105
6 1.31008 1.11022e-15
7 1.28445 8.88178e-16
8 1.25883 2.66454e-15
9 1.23093 0.00145346
10 1.20437 8.88178e-16
11 1.17792 0.001405
12 1.15101 0.00151735
13 1.12452 0.00176927
14 1.09729 0.00158579
15 1.0694 0.00111144
16 1.04137 0.00100223
