BGreg_val Voltage stddev
0 1.42116 0.00168765
1 1.4062 0.000318707
2 1.38881 0.00158093
3 1.37094 2.44249e-15
4 1.35172 2.66454e-15
5 1.33051 0.00155475
6 1.30697 0.000546412
7 1.28135 0.000546412
8 1.25562 2.22045e-15
9 1.22962 0.00104089
10 1.20236 0.00154648
11 1.17673 0.00262793
12 1.15008 0.00700855
13 1.12279 0.00777317
14 1.09464 0.00704134
15 1.06757 0.00744746
16 1.03951 0.00183754
