BGreg_val Voltage stddev
0 1.31597 0.0162302
1 1.31998 0.014304
2 1.31709 0.0143011
3 1.31802 0.0134415
4 1.31504 0.012259
5 1.30691 0.00669591
6 1.29054 0.00343497
7 1.26741 0.00206992
8 1.24153 0.00175442
9 1.21985 0.0393686
10 1.18935 0.00154913
11 1.16325 0.00117429
12 1.13624 0.00142206
13 1.10995 0.00281
14 1.08397 0.00235794
15 1.0554 0.00160124
16 1.02843 0.000817268
