BGreg_val Voltage stddev
0 1.41344 0.00768556
1 1.41264 0.00728991
2 1.40505 0.00555491
3 1.38955 0.00125659
4 1.37094 2.44249e-15
5 1.35172 2.66454e-15
6 1.3293 1.33227e-15
7 1.30531 0.00160124
8 1.27805 8.88178e-16
9 1.25242 1.11022e-15
10 1.22391 0.000960937
11 1.19755 0.00107722
12 1.1701 0.00194838
13 1.14771 0.0463529
14 1.116 0.00286836
15 1.0866 0.00174592
16 1.05927 0.00146786
