BGreg_val Voltage stddev
0 1.42517 0.00357418
1 1.41226 0.000960938
2 1.39336 8.88178e-16
3 1.37094 2.44249e-15
4 1.34531 2.66454e-15
5 1.31969 0
6 1.29406 1.55431e-15
7 1.26773 0.00132688
8 1.23961 4.44089e-16
9 1.21293 0.00163673
10 1.18628 0.00152779
11 1.15924 0.00240106
12 1.13259 0.0015754
13 1.1062 0.00152779
14 1.07981 0.00118948
15 1.05168 0.00150615
16 1.025 1.55431e-15
