BGreg_val Voltage stddev
0 1.426 0.00325697
1 1.41232 0.000868986
2 1.39339 0.000318707
3 1.37657 0.001368
4 1.35492 1.55431e-15
5 1.3357 1.77636e-15
6 1.31328 1.77636e-15
7 1.28766 1.33227e-15
8 1.262 0.000318707
9 1.23391 0.00132688
10 1.20707 0.00259117
11 1.18106 0.00362619
12 1.15232 0.00509236
13 1.12481 0.00623944
14 1.10066 0.00615767
15 1.07138 0.00358063
16 1.04457 0.00275152
