BGreg_val Voltage stddev
0 1.01219 6.66134e-16
1 0.999375 5.55112e-16
2 0.986563 1.55431e-15
3 0.97375 8.88178e-16
4 0.960649 0.000916676
5 0.944922 1.22125e-15
6 0.929002 0.000546412
7 0.909976 0.000916676
8 0.892038 0.00160124
9 0.871602 0.00100223
10 0.853633 0.00166439
11 0.833581 0.0034236
12 0.814811 0.00741273
13 0.794407 0.0077737
14 0.777719 0.00756643
15 0.753888 0.00848097
16 0.735309 0.0017142
