BGreg_val Voltage stddev
0 1.40937 6.66134e-16
1 1.39326 0.000546412
2 1.37414 1.77636e-15
3 1.35492 1.55431e-15
4 1.3326 0.000546412
5 1.31008 1.11022e-15
6 1.28445 8.88178e-16
7 1.258 0.001405
8 1.23038 0.00104089
9 1.2046 0.00151971
10 1.17901 0.00358636
11 1.15047 0.00617888
12 1.12526 0.00589758
13 1.09829 0.00385122
14 1.07189 0.00363861
15 1.0438 0.00238219
16 1.01738 0.00155475
