BGreg_val Voltage stddev
0 1.42308 0.00336191
1 1.41146 0.00152779
2 1.39387 0.00117429
3 1.37654 0.00138699
4 1.35492 1.55431e-15
5 1.3293 1.33227e-15
6 1.30367 2.66454e-15
7 1.27805 8.88178e-16
8 1.24931 0.000546412
9 1.22273 0.00142206
10 1.19605 0.0015692
11 1.16911 0.00228726
12 1.14191 0.00160156
13 1.11478 0.000546412
14 1.08778 0.0015692
15 1.06023 2.44249e-15
16 1.0323 0.0014382
