BGreg_val Voltage stddev
0 1.0036 0.00149418
1 0.991463 0.00159868
2 0.976953 1.22125e-15
3 0.967888 0.0372887
4 0.951328 2.33147e-15
5 0.935312 1.11022e-15
6 0.917055 0.00146786
7 0.898605 0.00159643
8 0.880667 0.0007607
9 0.860808 0.001405
10 0.841525 0.0014382
11 0.822082 0.00165667
12 0.803152 0.001405
13 0.784349 0.00179232
14 0.765707 0.00131094
15 0.744823 0.00159868
16 0.726597 0.00117429
