BGreg_val Voltage stddev
0 1.01219 6.66134e-16
1 0.999375 5.55112e-16
2 0.986563 1.55431e-15
3 0.97375 8.88178e-16
4 0.960937 0
5 0.944922 1.22125e-15
6 0.928906 1.66533e-15
7 0.909688 1.11022e-16
8 0.890789 0.000960937
9 0.871891 0.00128125
10 0.852576 0.00212737
11 0.833902 0.00151735
12 0.814395 0.00171748
13 0.794952 0.0012306
14 0.776021 0.00149246
15 0.755938 1.33227e-15
16 0.736719 1.11022e-16
